sim_time, uav1/rotor_3_joint?0/velocity
387.46, -47.1811
387.464, -47.0763
387.468, -46.9684
387.472, -46.8579
387.476, -46.7638
387.48, -46.6836
387.484, -46.6338
387.488, -46.6006
387.492, -46.5817
387.496, -46.5862
387.5, -46.6066
387.504, -46.6559
387.508, -46.7604
387.512, -46.9567
387.516, -47.0993
387.52, -47.2201
387.524, -47.4281
387.528, -47.5793
387.532, -47.6891
387.536, -47.7688
387.54, -47.7751
387.544, -47.7404
387.548, -47.6923
387.552, -47.6326
387.556, -47.554
387.56, -47.4684
387.564, -47.3862
387.568, -47.2884
387.572, -47.1771
387.576, -47.0823
387.58, -46.9922
387.584, -46.9154
387.588, -46.8592
387.592, -46.83
387.596, -46.8236
387.6, -46.8479
387.604, -46.8656
387.608, -46.93
387.612, -47.0112
387.616, -47.1045
387.62, -47.2239
387.624, -47.3966
387.628, -47.522
387.632, -47.6131
387.636, -47.748
387.64, -47.8632
387.644, -47.9297
387.648, -47.9607
387.652, -47.9544
387.656, -47.9211
387.66, -47.8648
387.664, -47.7798
387.668, -47.7166
387.672, -47.6442
387.676, -47.5547
387.68, -47.497
387.684, -47.4386
387.688, -47.3888
387.692, -47.3463
387.696, -47.2916
387.7, -47.2449
387.704, -47.2573
387.708, -47.3178
387.712, -47.3618
387.716, -47.411
387.72, -47.5326
387.724, -47.6382
387.728, -47.7149
387.732, -47.7706
387.736, -47.8454
387.74, -47.8997
387.744, -47.922
387.748, -47.9122
387.752, -47.8945
387.756, -47.8515
387.76, -47.7871
387.764, -47.7322
387.768, -47.6389
387.772, -47.5223
387.776, -47.423
387.78, -47.3198
387.784, -47.2318
387.788, -47.1569
387.792, -47.0837
387.796, -47.0306
387.8, -46.9854
387.804, -46.9469
387.808, -46.914
387.812, -46.9046
387.816, -46.9069
387.82, -46.9774
387.824, -47.0629
387.828, -47.1251
387.832, -47.2046
387.836, -47.2796
387.84, -47.3856
387.844, -47.4798
387.848, -47.531
387.852, -47.5338
387.856, -47.5256
387.86, -47.5093
387.864, -47.4769
387.868, -47.4944
387.872, -47.4735
387.876, -47.4372
387.88, -47.3876
387.884, -47.3268
387.888, -47.275
387.892, -47.138
387.896, -47.0118
387.9, -46.8951
387.904, -46.8327
387.908, -46.7518
387.912, -46.6828
387.916, -46.624
387.92, -46.5739
387.924, -46.5498
387.928, -46.5292
387.932, -46.5117
387.936, -46.506
387.94, -46.5315
387.944, -46.5844
387.948, -46.6228
387.952, -46.6679
387.956, -46.7006
387.96, -46.6949
387.964, -46.69
387.968, -46.6393
387.972, -46.5869
387.976, -46.5143
387.98, -46.4339
387.984, -46.3653
387.988, -46.2976
387.992, -46.2307
387.996, -46.1365
388, -46.0376
388.004, -45.9347
388.008, -45.8471
388.012, -45.7631
388.016, -45.6823
388.02, -45.6134
388.024, -45.564
388.028, -45.5311
388.032, -45.5032
388.036, -45.4886
388.04, -45.4855
388.044, -45.515
388.048, -45.4709
388.052, -45.4425
388.056, -45.4183
388.06, -45.4162
388.064, -45.3866
388.068, -45.3614
388.072, -45.3492
388.076, -45.348
388.08, -45.3635
388.084, -45.3602
388.088, -45.2089
388.092, -45.0705
388.096, -44.9525
388.1, -44.8521
388.104, -44.7479
388.108, -44.6777
388.112, -44.5622
388.116, -44.4637
388.12, -44.3797
388.124, -44.3175
388.128, -44.2644
388.132, -44.2192
388.136, -44.1343
388.14, -44.0712
388.144, -44.0174
388.148, -43.9715
388.152, -43.9417
388.156, -43.9256
388.16, -43.9346
388.164, -43.9928
388.168, -44.0006
388.172, -44.0063
388.176, -43.99
388.18, -43.9668
388.184, -43.9655
388.188, -43.9645
388.192, -43.9636
388.196, -43.9536
388.2, -43.9171
388.204, -43.8768
388.208, -43.8517
388.212, -43.8304
388.216, -43.8029
388.22, -43.7702
388.224, -43.7052
388.228, -43.6497
388.232, -43.6118
388.236, -43.5795
388.24, -43.5055
388.244, -43.4425
388.248, -43.3888
388.252, -43.343
388.256, -43.3132
388.26, -43.2786
388.264, -43.2491
388.268, -43.2332
388.272, -43.2426
388.276, -43.2666
388.28, -43.284
388.284, -43.2723
388.288, -43.3053
388.292, -43.3294
388.296, -43.3812
388.3, -43.436
388.304, -43.493
388.308, -43.4782
388.312, -43.4656
388.316, -43.4456
388.32, -43.4285
388.324, -43.3954
388.328, -43.3672
388.332, -43.3338
388.336, -43.3054
388.34, -43.272
388.344, -43.2434
388.348, -43.2099
388.352, -43.1812
388.356, -43.1568
388.36, -43.1361
388.364, -43.1376
388.368, -43.156
388.372, -43.1539
388.376, -43.1521
388.38, -43.1665
388.384, -43.1629
388.388, -43.1598
388.392, -43.1721
388.396, -43.2154
388.4, -43.2641
388.404, -43.3166
388.408, -43.3548
388.412, -43.3653
388.416, -43.3729
388.42, -43.3957
388.424, -43.4294
388.428, -43.4241
388.432, -43.4195
388.436, -43.4156
388.44, -43.4267
388.444, -43.4348
388.448, -43.4008
388.452, -43.3718
388.456, -43.3379
388.46, -43.3368
388.464, -43.3695
388.468, -43.3932
388.472, -43.4277
388.476, -43.4871
388.48, -43.5302
388.484, -43.5444
388.488, -43.5718
388.492, -43.5918
388.496, -43.6235
388.5, -43.6809
388.504, -43.7226
388.508, -43.7204
388.512, -43.7093
388.516, -43.709
388.52, -43.7259
388.524, -43.7553
388.528, -43.7767
388.532, -43.7758
388.536, -43.775
388.54, -43.791
388.544, -43.8198
388.548, -43.8408
388.552, -43.856
388.556, -43.8526
388.56, -43.8405
388.564, -43.8302
388.568, -43.8311
388.572, -43.8662
388.576, -43.9089
388.58, -43.9227
388.584, -43.9671
388.588, -43.9994
388.592, -44.0056
388.596, -44.0102
388.6, -44.0479
388.604, -44.058
388.608, -44.0826
388.612, -44.1005
388.616, -44.1307
388.62, -44.1526
388.624, -44.1857
388.628, -44.2269
388.632, -44.2569
388.636, -44.2959
388.64, -44.3241
388.644, -44.3963
388.648, -44.4487
388.652, -44.4695
388.656, -44.4847
388.66, -44.5129
388.664, -44.5162
388.668, -44.5186
388.672, -44.4824
388.676, -44.4794
388.68, -44.5091
388.684, -44.5307
388.688, -44.5299
388.692, -44.5199
388.696, -44.5114
388.7, -44.5042
388.704, -44.5443
388.708, -44.6079
388.712, -44.6713
388.716, -44.7345
388.72, -44.7804
388.724, -44.8138
388.728, -44.8552
388.732, -44.8853
388.736, -44.9415
388.74, -44.9823
388.744, -44.9948
388.748, -45.0039
388.752, -44.9981
388.756, -45.0063
388.76, -45.0122
388.764, -45.0053
388.768, -44.99
388.772, -44.9678
388.776, -44.9396
388.78, -44.9063
388.784, -44.8779
388.788, -44.8722
388.792, -44.8805
388.796, -44.8866
388.8, -44.891
388.804, -44.9114
388.808, -44.9433
388.812, -44.9838
388.816, -45.0132
388.82, -45.0689
388.824, -45.1266
388.828, -45.1856
388.832, -45.263
388.836, -45.3363
388.84, -45.3896
388.844, -45.411
388.848, -45.4438
388.852, -45.4381
388.856, -45.4463
388.86, -45.4402
388.864, -45.435
388.868, -45.3842
388.872, -45.3502
388.876, -45.3119
388.88, -45.2793
388.884, -45.2422
388.888, -45.2013
388.892, -45.1479
388.896, -45.121
388.9, -45.1073
388.904, -45.0957
388.908, -45.095
388.912, -45.1284
388.916, -45.1526
388.92, -45.2046
388.924, -45.2596
388.928, -45.3167
388.932, -45.3754
388.936, -45.418
388.94, -45.4317
388.944, -45.4417
388.948, -45.4489
388.952, -45.4424
388.956, -45.4277
388.96, -45.4058
388.964, -45.3964
388.968, -45.3606
388.972, -45.33
388.976, -45.2947
388.98, -45.2646
388.984, -45.2204
388.988, -45.1735
388.992, -45.1335
388.996, -45.1087
389, -45.0782
389.004, -45.0523
389.008, -45.0302
389.012, -45.0206
389.016, -45.0228
389.02, -45.0415
389.024, -45.0723
389.028, -45.1119
389.032, -45.1578
389.036, -45.1912
389.04, -45.2154
389.044, -45.2158
389.048, -45.216
389.052, -45.2162
389.056, -45.2336
389.06, -45.2462
389.064, -45.2418
389.068, -45.2288
389.072, -45.2085
389.076, -45.1818
389.08, -45.1591
389.084, -45.1305
389.088, -45.1061
389.092, -45.076
389.096, -45.0504
389.1, -45.0378
389.104, -45.0085
389.108, -44.9743
389.112, -44.9544
389.116, -44.9467
389.12, -44.9519
389.124, -44.9556
389.128, -44.9582
389.132, -44.95
389.136, -44.9337
389.14, -44.9198
389.144, -44.9322
389.148, -44.9585
389.152, -44.9603
389.156, -44.9617
389.16, -44.9529
389.164, -44.9455
389.168, -44.9509
389.172, -44.9548
389.176, -44.9471
389.18, -44.9405
389.184, -44.9255
389.188, -44.9128
389.192, -44.902
389.196, -44.9021
389.2, -44.9021
389.204, -44.8929
389.208, -44.8664
389.212, -44.8438
389.216, -44.8153
389.22, -44.7817
389.224, -44.7717
389.228, -44.7631
389.232, -44.7558
389.236, -44.7496
389.24, -44.7257
389.244, -44.6961
389.248, -44.6615
389.252, -44.6414
389.256, -44.6335
389.26, -44.6382
389.264, -44.6589
389.268, -44.6484
389.272, -44.6302
389.276, -44.6147
389.28, -44.6107
389.284, -44.6389
389.288, -44.6766
389.292, -44.7039
389.296, -44.7066
389.3, -44.7085
389.304, -44.6906
389.308, -44.6969
389.312, -44.7014
389.316, -44.6846
389.32, -44.6518
389.324, -44.6237
389.328, -44.5906
389.332, -44.5438
389.336, -44.5038
389.34, -44.4884
389.344, -44.4659
389.348, -44.4282
389.352, -44.4054
389.356, -44.3952
389.36, -44.3865
389.364, -44.3901
389.368, -44.4098
389.372, -44.4413
389.376, -44.447
389.38, -44.4512
389.384, -44.4886
389.388, -44.5157
389.392, -44.5183
389.396, -44.5201
389.4, -44.5386
389.404, -44.5521
389.408, -44.579
389.412, -44.5986
389.416, -44.597
389.42, -44.5771
389.424, -44.5508
389.428, -44.5284
389.432, -44.5093
389.436, -44.4838
389.44, -44.4434
389.444, -44.3904
389.448, -44.336
389.452, -44.3082
389.456, -44.2845
389.46, -44.2643
389.464, -44.2378
389.468, -44.2152
389.472, -44.196
389.476, -44.1889
389.48, -44.1949
389.484, -44.1992
389.488, -44.2024
389.492, -44.1943
389.496, -44.1875
389.5, -44.211
389.504, -44.2453
389.508, -44.2702
389.512, -44.2614
389.516, -44.2539
389.52, -44.2937
389.524, -44.2907
389.528, -44.2789
389.532, -44.2595
389.536, -44.2337
389.54, -44.2117
389.544, -44.193
389.548, -44.1677
389.552, -44.1462
389.556, -44.1279
389.56, -44.1216
389.564, -44.0976
389.568, -44.0772
389.572, -44.069
389.576, -44.0734
389.58, -44.0766
389.584, -44.0789
389.588, -44.0806
389.592, -44.0818
389.596, -44.0827
389.6, -44.0834
389.604, -44.101
389.608, -44.1139
389.612, -44.1096
389.616, -44.1201
389.62, -44.1277
389.624, -44.1332
389.628, -44.1372
389.632, -44.1202
389.636, -44.115
389.64, -44.124
389.644, -44.1305
389.648, -44.1238
389.652, -44.1181
389.656, -44.1132
389.66, -44.1091
389.664, -44.1197
389.668, -44.1146
389.672, -44.1009
389.676, -44.08
389.68, -44.0622
389.684, -44.0563
389.688, -44.0642
389.692, -44.0871
389.696, -44.1037
389.7, -44.101
389.704, -44.0986
389.708, -44.0966
389.712, -44.1106
389.716, -44.1208
389.72, -44.1155
389.724, -44.111
389.728, -44.0886
389.732, -44.0695
389.736, -44.0626
389.74, -44.0687
389.744, -44.0619
389.748, -44.0468
389.752, -44.0573
389.756, -44.0649
389.76, -44.1048
389.764, -44.1166
389.768, -44.1252
389.772, -44.1486
389.776, -44.1828
389.78, -44.2077
389.784, -44.2085
389.788, -44.2092
389.792, -44.2001
389.796, -44.1924
389.8, -44.1859
389.804, -44.1803
389.808, -44.1755
389.812, -44.1714
389.816, -44.168
389.82, -44.165
389.824, -44.1776
389.828, -44.2039
389.832, -44.2058
389.836, -44.2072
389.84, -44.2082
389.844, -44.2089
389.848, -44.2095
389.852, -44.227
389.856, -44.257
389.86, -44.2616
389.864, -44.2448
389.868, -44.2398
389.872, -44.2491
389.876, -44.2558
389.88, -44.2607
389.884, -44.2534
389.888, -44.2471
389.892, -44.2418
389.896, -44.2505
389.9, -44.2569
389.904, -44.2787
389.908, -44.278
389.912, -44.2681
389.916, -44.2596
389.92, -44.2524
389.924, -44.2583
389.928, -44.2797
389.932, -44.2789
389.936, -44.2781
389.94, -44.2941
389.944, -44.3058
389.948, -44.3142
389.952, -44.3375
389.956, -44.3545
389.96, -44.3519
389.964, -44.3496
389.968, -44.3633
389.972, -44.3732
389.976, -44.3804
389.98, -44.3739
389.984, -44.3684
389.988, -44.3941
389.992, -44.4128
389.996, -44.4263
390, -44.4224
390.004, -44.4097
390.008, -44.3989
390.012, -44.3991
390.016, -44.4164
390.02, -44.429
390.024, -44.4381
390.028, -44.4448
390.032, -44.4496
390.036, -44.4531
390.04, -44.49
390.044, -44.4997
390.048, -44.5067
390.052, -44.5118
390.056, -44.5045
390.06, -44.5101
390.064, -44.5143
390.068, -44.5066
390.072, -44.5001
390.076, -44.507
390.08, -44.512
390.084, -44.5156
390.088, -44.5183
390.092, -44.5202
390.096, -44.5216
390.1, -44.5128
390.104, -44.5162
390.108, -44.5187
390.112, -44.5377
390.116, -44.5515
390.12, -44.5959
390.124, -44.6282
390.128, -44.6516
390.132, -44.6858
390.136, -44.7278
390.14, -44.7756
390.144, -44.8274
390.148, -44.8479
390.152, -44.8799
390.156, -44.9032
390.16, -44.9545
390.164, -44.9574
390.168, -44.9594
390.172, -44.9781
390.176, -44.9917
390.18, -45.0015
390.184, -45.0259
390.188, -45.0436
390.192, -45.0736
390.196, -45.0955
390.2, -45.1113
390.204, -45.14
390.208, -45.1327
390.212, -45.1264
390.216, -45.1211
390.22, -45.1299
390.224, -45.1363
390.228, -45.141
390.232, -45.1444
390.236, -45.1468
390.24, -45.1658
390.244, -45.164
390.248, -45.1531
390.252, -45.1346
390.256, -45.1397
390.26, -45.1606
390.264, -45.1758
390.268, -45.1869
390.272, -45.1949
390.276, -45.2179
390.28, -45.2346
390.284, -45.2468
390.288, -45.2422
390.292, -45.2523
390.296, -45.2596
390.3, -45.2531
390.304, -45.2477
390.308, -45.2337
390.312, -45.2218
390.316, -45.2024
390.32, -45.1766
390.324, -45.1546
390.328, -45.1265
390.332, -45.0934
390.336, -45.0651
390.34, -45.0503
390.344, -45.0376
390.348, -45.0176
390.352, -45.0005
390.356, -44.986
390.36, -44.9828
390.364, -44.9951
390.368, -44.9907
390.372, -45.0008
390.376, -45.0082
390.38, -45.0135
390.384, -45.0063
390.388, -45.0002
390.392, -44.9857
390.396, -44.9734
390.4, -44.9628
390.404, -44.9445
390.408, -44.9197
390.412, -44.8892
390.416, -44.854
390.42, -44.824
390.424, -44.8076
390.428, -44.7752
390.432, -44.7475
390.436, -44.7239
390.44, -44.7038
390.444, -44.6867
390.448, -44.6814
390.452, -44.6676
390.456, -44.6558
390.46, -44.6458
390.464, -44.6472
390.468, -44.6292
390.472, -44.6138
390.476, -44.6007
390.48, -44.5895
390.484, -44.5893
390.488, -44.5891
390.492, -44.6232
390.496, -44.6308
390.5, -44.6152
390.504, -44.5926
390.508, -44.5734
390.512, -44.557
390.516, -44.543
390.52, -44.5218
390.524, -44.4944
390.528, -44.4618
390.532, -44.4248
390.536, -44.4118
390.54, -44.41
390.544, -44.4084
390.548, -44.3978
390.552, -44.3888
390.556, -44.3811
390.56, -44.3745
390.564, -44.3597
390.568, -44.347
390.572, -44.3362
390.576, -44.3363
390.58, -44.3364
390.584, -44.3365
390.588, -44.3366
390.592, -44.3273
390.596, -44.3194
390.6, -44.3127
390.604, -44.2977
390.608, -44.2849
390.612, -44.274
390.616, -44.2647
390.62, -44.2567
390.624, -44.25
390.628, -44.2349
390.632, -44.2128
390.636, -44.194
390.64, -44.1873
390.644, -44.1938
390.648, -44.1985
390.652, -44.202
390.656, -44.194
390.66, -44.1873
390.664, -44.1815
390.668, -44.1766
390.672, -44.1724
390.676, -44.1595
390.68, -44.1486
390.684, -44.1393
390.688, -44.1313
390.692, -44.1245
390.696, -44.1095
390.7, -44.0966
390.704, -44.0857
390.708, -44.1028
390.712, -44.1497
390.716, -44.1837
390.72, -44.1912
390.724, -44.1848
390.728, -44.1794
390.732, -44.1655
390.736, -44.1537
390.74, -44.1436
390.744, -44.1449
390.748, -44.1458
390.752, -44.1369
390.756, -44.1292
390.76, -44.1227
390.764, -44.1079
390.768, -44.1046
390.772, -44.1165
390.776, -44.1252
390.78, -44.1315
390.784, -44.1154
390.788, -44.1017
390.792, -44.0714
390.796, -44.0456
390.8, -44.0236
390.804, -44.0142
390.808, -44.0062
390.812, -44.0106
390.816, -44.0311
390.82, -44.0632
390.824, -44.0864
390.828, -44.1034
390.832, -44.1007
390.836, -44.0984
390.84, -44.0965
390.844, -44.1107
390.848, -44.1381
390.852, -44.1409
390.856, -44.1429
390.86, -44.1443
390.864, -44.1263
390.868, -44.111
390.872, -44.0979
390.876, -44.0868
390.88, -44.0866
390.884, -44.0864
390.888, -44.0863
390.892, -44.0861
390.896, -44.086
390.9, -44.0859
390.904, -44.0859
390.908, -44.0858
390.912, -44.1029
390.916, -44.1325
390.92, -44.154
390.924, -44.1531
390.928, -44.1524
390.932, -44.1518
390.936, -44.168
390.94, -44.1798
390.944, -44.1751
390.948, -44.1618
390.952, -44.1505
390.956, -44.1409
390.96, -44.1327
390.964, -44.1257
390.968, -44.1491
390.972, -44.166
390.976, -44.1783
390.98, -44.2045
390.984, -44.2235
390.988, -44.2373
390.992, -44.2334
390.996, -44.2301
391, -44.2421
391.004, -44.268
391.008, -44.2868
391.012, -44.3004
391.016, -44.3276
391.02, -44.3472
391.024, -44.3457
391.028, -44.3258
391.032, -44.2995
391.036, -44.2865
391.04, -44.2846
391.044, -44.2989
391.048, -44.3264
391.052, -44.3292
391.056, -44.321
391.06, -44.314
391.064, -44.3081
391.068, -44.3331
391.072, -44.3513
391.076, -44.3645
391.08, -44.3741
391.084, -44.3686
391.088, -44.3639
391.092, -44.3598
391.096, -44.3707
391.1, -44.3786
391.104, -44.4015
391.108, -44.4182
391.112, -44.4303
391.116, -44.439
391.12, -44.4332
391.124, -44.4282
391.128, -44.4239
391.132, -44.411
391.136, -44.4001
391.14, -44.3907
391.144, -44.3931
391.148, -44.4121
391.152, -44.4258
391.156, -44.4358
391.16, -44.4304
391.164, -44.4392
391.168, -44.4455
391.172, -44.4501
391.176, -44.4706
391.18, -44.4694
391.184, -44.4591
391.188, -44.4503
391.192, -44.4428
391.196, -44.4364
391.2, -44.4309
391.204, -44.4263
391.208, -44.4223
391.212, -44.4097
391.216, -44.4081
391.22, -44.423
391.224, -44.4195
391.228, -44.4165
391.232, -44.4291
391.236, -44.4382
391.24, -44.4448
391.244, -44.4496
391.248, -44.4703
391.252, -44.4853
391.256, -44.4962
391.26, -44.5041
391.264, -44.4979
391.268, -44.4927
391.272, -44.4882
391.276, -44.4844
391.28, -44.4811
391.284, -44.4783
391.288, -44.476
391.292, -44.5066
391.296, -44.5289
391.3, -44.5283
391.304, -44.5093
391.308, -44.4931
391.312, -44.4885
391.316, -44.5157
391.32, -44.5183
391.324, -44.5202
391.328, -44.5215
391.332, -44.5225
391.336, -44.5232
391.34, -44.541
391.344, -44.5882
391.348, -44.6225
391.352, -44.6303
391.356, -44.624
391.36, -44.6187
391.364, -44.6141
391.368, -44.601
391.372, -44.5805
391.376, -44.5444
391.38, -44.523
391.384, -44.514
391.388, -44.5064
391.392, -44.4999
391.396, -44.5068
391.4, -44.5118
391.404, -44.5155
391.408, -44.5353
391.412, -44.5497
391.416, -44.5602
391.42, -44.555
391.424, -44.564
391.428, -44.5706
391.432, -44.5925
391.436, -44.6257
391.44, -44.6497
391.444, -44.65
391.448, -44.6846
391.452, -44.6926
391.456, -44.6771
391.46, -44.6639
391.464, -44.6248
391.468, -44.5915
391.472, -44.5631
391.476, -44.5297
391.48, -44.5011
391.484, -44.4676
391.488, -44.4297
391.492, -44.4066
391.496, -44.4056
391.5, -44.4211
391.504, -44.4324
391.508, -44.4406
391.512, -44.4466
391.516, -44.4681
391.52, -44.5009
391.524, -44.542
391.528, -44.5718
391.532, -44.5934
391.536, -44.6091
391.54, -44.6205
391.544, -44.6288
391.548, -44.6348
391.552, -44.6392
391.556, -44.6316
391.56, -44.6251
391.564, -44.6103
391.568, -44.5977
391.572, -44.5777
391.576, -44.5607
391.58, -44.5369
391.584, -44.5166
391.588, -44.4993
391.592, -44.4845
391.596, -44.472
391.6, -44.4613
391.604, -44.4429
391.608, -44.4179
391.612, -44.4059
391.616, -44.3957
391.62, -44.3967
391.624, -44.3975
391.628, -44.3981
391.632, -44.3985
391.636, -44.3988
391.64, -44.399
391.644, -44.4335
391.648, -44.4758
391.652, -44.5237
391.656, -44.5585
391.66, -44.5838
391.664, -44.5751
391.668, -44.5677
391.672, -44.5614
391.676, -44.5375
391.68, -44.4985
391.684, -44.4653
391.688, -44.4463
391.692, -44.4394
391.696, -44.4457
391.7, -44.4388
391.704, -44.4238
391.708, -44.4016
391.712, -44.392
391.716, -44.3838
391.72, -44.3769
391.724, -44.3709
391.728, -44.3659
391.732, -44.343
391.736, -44.3328
391.74, -44.3683
391.744, -44.394
391.748, -44.4127
391.752, -44.4108
391.756, -44.4091
391.76, -44.4077
391.764, -44.4065
391.768, -44.3962
391.772, -44.3971
391.776, -44.4321
391.78, -44.4748
391.784, -44.4886
391.788, -44.4847
391.792, -44.4628
391.796, -44.4442
391.8, -44.419
391.804, -44.3976
391.808, -44.37
391.812, -44.3465
391.816, -44.3357
391.82, -44.3173
391.824, -44.2923
391.828, -44.2803
391.832, -44.2701
391.836, -44.2613
391.84, -44.2539
391.844, -44.2476
391.848, -44.272
391.852, -44.3241
391.856, -44.3791
391.86, -44.4019
391.864, -44.4357
391.868, -44.4602
391.872, -44.4512
391.876, -44.4435
391.88, -44.4487
391.884, -44.4414
391.888, -44.4352
391.892, -44.4206
391.896, -44.3896
391.9, -44.3539
391.904, -44.3235
391.908, -44.2883
391.912, -44.2584
391.916, -44.2421
391.92, -44.2282
391.924, -44.2257
391.928, -44.2389
391.932, -44.2657
391.936, -44.2851
391.94, -44.2993
391.944, -44.3095
391.948, -44.317
391.952, -44.3224
391.956, -44.3263
391.96, -44.3291
391.964, -44.3312
391.968, -44.3671
391.972, -44.3932
391.976, -44.4121
391.98, -44.4258
