sim_time, uav1/rotor_1_joint?0/velocity
386.776, 45.5964
386.78, 46.1107
386.784, 46.5358
386.788, 46.8961
386.792, 46.7124
386.796, 46.5745
386.8, 46.4662
386.804, 46.3647
386.808, 46.1667
386.812, 45.9517
386.816, 45.6756
386.82, 45.4404
386.824, 45.2492
386.828, 45.1328
386.832, 45.0706
386.836, 45.0929
386.84, 45.2294
386.844, 45.449
386.848, 45.746
386.852, 45.6303
386.856, 45.6154
386.86, 45.9702
386.864, 46.331
386.868, 46.6274
386.872, 46.8943
386.876, 47.1396
386.88, 47.3694
386.884, 47.6223
386.888, 47.8748
386.892, 48.0581
386.896, 48.1568
386.9, 48.1597
386.904, 48.1423
386.908, 48.0996
386.912, 47.9518
386.916, 47.7981
386.92, 47.6393
386.924, 47.4761
386.928, 47.3371
386.932, 47.1814
386.936, 47.1138
386.94, 47.0747
386.944, 47.0692
386.948, 47.1982
386.952, 47.4122
386.956, 47.7397
386.96, 48.0807
386.964, 48.3799
386.968, 48.6488
386.972, 48.8784
386.976, 49.1999
386.98, 49.4506
386.984, 49.6327
386.988, 49.6788
386.992, 49.5763
386.996, 49.4425
387, 49.2636
387.004, 49.0461
387.008, 48.805
387.012, 48.5439
387.016, 48.2749
387.02, 48.0086
387.024, 47.7632
387.028, 47.6561
387.032, 47.5926
387.036, 47.6645
387.04, 47.8199
387.044, 48.1907
387.048, 48.46
387.052, 48.9307
387.056, 49.3757
387.06, 49.9052
387.064, 50.2554
387.068, 50.5096
387.072, 50.6427
387.076, 50.6704
387.08, 50.5606
387.084, 50.3834
387.088, 50.1303
387.092, 49.9147
387.096, 49.5266
387.1, 49.1125
387.104, 48.6853
387.108, 48.2748
387.112, 47.8972
387.116, 47.5568
387.12, 47.2667
387.124, 47.0566
387.128, 46.924
387.132, 46.876
387.136, 46.9722
387.14, 47.2313
387.144, 47.6086
387.148, 48.0374
387.152, 48.5035
387.156, 48.9796
387.16, 49.4113
387.164, 49.7935
387.168, 50.0883
387.172, 50.2679
387.176, 50.1619
387.18, 50.0252
387.184, 49.8437
387.188, 49.689
387.192, 49.4087
387.196, 49.077
387.2, 48.5714
387.204, 48.2523
387.208, 47.9524
387.212, 47.5761
387.216, 47.2648
387.22, 46.953
387.224, 46.7431
387.228, 46.7035
387.232, 46.83
387.236, 47.111
387.24, 47.5215
387.244, 48.0431
387.248, 48.8346
387.252, 49.7534
387.256, 50.5925
387.26, 51.3738
387.264, 52.0787
387.268, 52.5906
387.272, 52.8935
387.276, 52.9414
387.28, 52.8393
387.284, 52.5945
387.288, 52.2002
387.292, 51.6784
387.296, 51.1503
387.3, 50.6259
387.304, 50.0119
387.308, 49.3679
387.312, 48.6985
387.316, 48.0538
387.32, 47.5137
387.324, 47.0348
387.328, 46.7289
387.332, 46.4496
387.336, 46.2672
387.34, 46.1861
387.344, 46.2301
387.348, 46.4169
387.352, 46.7073
387.356, 47.1245
387.36, 47.5651
387.364, 47.9882
387.368, 48.3986
387.372, 48.7482
387.376, 49.0192
387.38, 49.1644
387.384, 49.201
387.388, 48.9925
387.392, 48.7313
387.396, 48.388
387.4, 48.0025
387.404, 47.5627
387.408, 47.095
387.412, 46.6222
387.416, 46.1729
387.42, 45.7436
387.424, 45.387
387.428, 45.1017
387.432, 44.8957
387.436, 44.7479
387.44, 44.6963
387.444, 44.7869
387.448, 44.9215
387.452, 45.1739
387.456, 45.4089
387.46, 45.7343
387.464, 45.9706
387.468, 46.2281
387.472, 46.5011
387.476, 46.7854
387.48, 47.0262
387.484, 47.201
387.488, 47.3108
387.492, 47.3561
387.496, 47.346
387.5, 47.3002
387.504, 47.2241
387.508, 47.0014
387.512, 46.8302
387.516, 46.6378
387.52, 46.4367
387.524, 46.2839
387.528, 46.0887
387.532, 45.913
387.536, 45.7726
387.54, 45.6437
387.544, 45.5431
387.548, 45.4296
387.552, 45.3422
387.556, 45.2863
387.56, 45.285
387.564, 45.3346
387.568, 45.3878
387.572, 45.478
387.576, 45.6295
387.58, 45.8255
387.584, 46.0367
387.588, 46.19
387.592, 46.3185
387.596, 46.4291
387.6, 46.5265
387.604, 46.5629
387.608, 46.5493
387.612, 46.5099
387.616, 46.4577
387.62, 46.4225
387.624, 46.453
387.628, 46.4371
387.632, 46.4049
387.636, 46.4574
387.64, 46.461
387.644, 46.4532
387.648, 46.458
387.652, 46.4505
387.656, 46.4349
387.66, 46.4123
387.664, 46.3745
387.668, 46.3836
387.672, 46.3686
387.676, 46.3279
387.68, 46.3211
387.684, 46.2781
387.688, 46.2322
387.692, 46.1931
387.696, 46.1133
387.7, 46.0268
387.704, 45.9624
387.708, 45.8889
387.712, 45.7984
387.716, 45.6841
387.72, 45.5961
387.724, 45.5117
387.728, 45.4398
387.732, 45.3786
387.736, 45.3357
387.74, 45.2898
387.744, 45.2414
387.748, 45.1909
387.752, 45.1386
387.756, 45.0662
387.76, 45.0045
387.764, 44.952
387.768, 44.8979
387.772, 44.8239
387.776, 44.8276
387.78, 44.8303
387.784, 44.822
387.788, 44.8606
387.792, 44.923
387.796, 44.9856
387.8, 45.0482
387.804, 45.0937
387.808, 45.1267
387.812, 45.2023
387.816, 45.2572
387.82, 45.3658
387.824, 45.4791
387.828, 45.5614
387.832, 45.5695
387.836, 45.5541
387.84, 45.633
387.844, 45.6559
387.848, 45.6463
387.852, 45.6195
387.856, 45.5596
387.86, 45.4807
387.864, 45.3856
387.868, 45.4247
387.872, 45.3935
387.876, 45.3391
387.88, 45.2742
387.884, 45.2095
387.888, 45.1544
387.892, 45.0054
387.896, 44.8599
387.9, 44.7173
387.904, 44.6701
387.908, 44.5741
387.912, 44.4831
387.916, 44.4055
387.92, 44.3393
387.924, 44.2923
387.928, 44.2708
387.932, 44.2712
387.936, 44.2887
387.94, 44.3358
387.944, 44.37
387.948, 44.4121
387.952, 44.4426
387.956, 44.4648
387.96, 44.4809
387.964, 44.5098
387.968, 44.484
387.972, 44.4621
387.976, 44.462
387.98, 44.4619
387.984, 44.4619
387.988, 44.4525
387.992, 44.4446
387.996, 44.5524
388, 44.6479
388.004, 44.7344
388.008, 44.8489
388.012, 44.9664
388.016, 45.069
388.02, 45.1606
388.024, 45.2272
388.028, 45.2584
388.032, 45.2638
388.036, 45.2566
388.04, 45.2227
388.044, 45.1752
388.048, 45.014
388.052, 44.8581
388.056, 44.716
388.06, 44.5764
388.064, 44.4852
388.068, 44.3983
388.072, 44.433
388.076, 44.527
388.08, 44.6468
388.084, 44.7683
388.088, 44.6116
388.092, 44.5154
388.096, 44.4706
388.1, 44.4417
388.104, 44.417
388.108, 44.4812
388.112, 44.4042
388.116, 44.3759
388.12, 44.417
388.124, 44.6188
388.128, 44.8342
388.132, 45.0594
388.136, 45.1714
388.14, 45.3387
388.144, 45.4773
388.148, 45.6641
388.152, 45.8341
388.156, 45.9747
388.16, 46.094
388.164, 46.1807
388.168, 46.2264
388.172, 46.2257
388.176, 46.2591
388.18, 46.2351
388.184, 46.1867
388.188, 46.127
388.192, 46.0389
388.196, 45.936
388.2, 45.8483
388.204, 45.755
388.208, 45.657
388.212, 45.5548
388.216, 45.4678
388.22, 45.3843
388.224, 45.3039
388.228, 45.2447
388.232, 45.2129
388.236, 45.195
388.24, 45.1426
388.244, 45.1258
388.248, 45.1681
388.252, 45.1988
388.256, 45.3243
388.26, 45.4155
388.264, 45.4645
388.268, 45.5172
388.272, 45.6071
388.276, 45.7068
388.28, 45.7792
388.284, 45.7519
388.288, 45.7604
388.292, 45.7544
388.296, 45.7307
388.3, 45.692
388.304, 45.6312
388.308, 45.5422
388.312, 45.4663
388.316, 45.4017
388.32, 45.3559
388.324, 45.3076
388.328, 45.2665
388.332, 45.25
388.336, 45.2452
388.34, 45.2411
388.344, 45.2691
388.348, 45.2894
388.352, 45.3041
388.356, 45.4008
388.36, 45.5054
388.364, 45.5986
388.368, 45.6834
388.372, 45.7106
388.376, 45.7304
388.38, 45.7288
388.384, 45.7089
388.388, 45.7013
388.392, 45.6762
388.396, 45.6455
388.4, 45.61
388.404, 45.5706
388.408, 45.5276
388.412, 45.4539
388.416, 45.3818
388.42, 45.3111
388.424, 45.2508
388.428, 45.1808
388.432, 45.1212
388.436, 45.0797
388.44, 45.0536
388.444, 45.0407
388.448, 44.9832
388.452, 44.9528
388.456, 44.9455
388.46, 45.0371
388.464, 45.1208
388.468, 45.1072
388.472, 45.1201
388.476, 45.2155
388.48, 45.302
388.484, 45.3131
388.488, 45.3212
388.492, 45.3443
388.496, 45.3611
388.5, 45.3583
388.504, 45.356
388.508, 45.3354
388.512, 45.3179
388.516, 45.303
388.52, 45.2717
388.524, 45.2357
388.528, 45.1864
388.532, 45.1445
388.536, 45.0995
388.54, 45.0518
388.544, 45.0112
388.548, 44.9673
388.552, 44.9299
388.556, 44.8795
388.56, 44.8457
388.564, 44.8263
388.568, 44.8097
388.572, 44.7863
388.576, 44.7756
388.58, 44.776
388.584, 44.8106
388.588, 44.8358
388.592, 44.8178
388.596, 44.8237
388.6, 44.8969
388.604, 44.9156
388.608, 44.9464
388.612, 44.9687
388.616, 44.9849
388.62, 44.982
388.624, 44.9702
388.628, 44.9509
388.632, 44.9437
388.636, 44.9376
388.64, 44.923
388.644, 44.9517
388.648, 44.9444
388.652, 44.9289
388.656, 44.9063
388.66, 44.8871
388.664, 44.8708
388.668, 44.8568
388.672, 44.8356
388.676, 44.799
388.68, 44.7492
388.684, 44.6975
388.688, 44.6441
388.692, 44.5986
388.696, 44.5599
388.7, 44.5269
388.704, 44.4523
388.708, 44.4073
388.712, 44.369
388.716, 44.3363
388.72, 44.3177
388.724, 44.3019
388.728, 44.2977
388.732, 44.3083
388.736, 44.3504
388.74, 44.381
388.744, 44.4203
388.748, 44.4489
388.752, 44.4697
388.756, 44.5192
388.76, 44.5551
388.764, 44.5811
388.768, 44.5728
388.772, 44.5564
388.776, 44.5331
388.78, 44.4947
388.784, 44.4526
388.788, 44.4354
388.792, 44.4114
388.796, 44.4252
388.8, 44.412
388.804, 44.3822
388.808, 44.3289
388.812, 44.2835
388.816, 44.2356
388.82, 44.2133
388.824, 44.185
388.828, 44.1237
388.832, 44.0715
388.836, 44.027
388.84, 43.9984
388.844, 43.9833
388.848, 43.9797
388.852, 43.9488
388.856, 43.9688
388.86, 44.0005
388.864, 44.0235
388.868, 44.0575
388.872, 44.0993
388.876, 44.1296
388.88, 44.1517
388.884, 44.1849
388.888, 44.209
388.892, 44.2093
388.896, 44.2267
388.9, 44.2243
388.904, 44.1943
388.908, 44.1409
388.912, 44.0862
388.916, 44.0395
388.92, 44.0276
388.924, 44.0081
388.928, 43.9637
388.932, 43.9166
388.936, 43.895
388.94, 43.8766
388.944, 43.8516
388.948, 43.8303
388.952, 43.8215
388.956, 43.7954
388.96, 43.7732
388.964, 43.8068
388.968, 43.8141
388.972, 43.8366
388.976, 43.8701
388.98, 43.9116
388.984, 43.959
388.988, 43.9934
388.992, 44.0183
388.996, 44.0709
389, 44.109
389.004, 44.1195
389.008, 44.1144
389.012, 44.1007
389.016, 44.089
389.02, 44.0698
389.024, 44.0348
389.028, 43.9865
389.032, 43.936
389.036, 43.893
389.04, 43.8656
389.044, 43.8423
389.048, 43.8317
389.052, 43.8134
389.056, 43.7978
389.06, 43.7845
389.064, 43.7825
389.068, 43.8136
389.072, 43.8535
389.076, 43.8824
389.08, 43.9378
389.084, 44.0124
389.088, 44.0666
389.092, 44.106
389.096, 44.1345
389.1, 44.1897
389.104, 44.2298
389.108, 44.2416
389.112, 44.2278
389.116, 44.1973
389.12, 44.1807
389.124, 44.1573
389.128, 44.128
389.132, 44.0845
389.136, 44.0381
389.14, 43.9893
389.144, 43.9663
389.148, 43.9375
389.152, 43.9128
389.156, 43.8919
389.16, 43.8833
389.164, 43.876
389.168, 43.8816
389.172, 43.9029
389.176, 43.9356
389.18, 44.0109
389.184, 44.0484
389.188, 44.0928
389.192, 44.1595
389.196, 44.2423
389.2, 44.354
389.204, 44.4352
389.208, 44.4597
389.212, 44.4775
389.216, 44.4752
389.22, 44.4733
389.224, 44.4874
389.228, 44.4651
389.232, 44.4368
389.236, 44.4127
389.24, 44.3829
389.244, 44.3482
389.248, 44.3
389.252, 44.259
389.256, 44.224
389.26, 44.2035
389.264, 44.1954
389.268, 44.1996
389.272, 44.2199
389.276, 44.2519
389.28, 44.2751
389.284, 44.3263
389.288, 44.4495
389.292, 44.539
389.296, 44.6211
389.3, 44.698
389.304, 44.7195
389.308, 44.7694
389.312, 44.8057
389.316, 44.8149
389.32, 44.8092
389.324, 44.7857
389.328, 44.7658
389.332, 44.7209
389.336, 44.6641
389.34, 44.6436
389.344, 44.6168
389.348, 44.5847
389.352, 44.5574
389.356, 44.534
389.36, 44.5049
389.364, 44.48
389.368, 44.4589
389.372, 44.4943
389.376, 44.5199
389.38, 44.5386
389.384, 44.5521
389.388, 44.5964
389.392, 44.6629
389.396, 44.7112
389.4, 44.7291
389.404, 44.7764
389.408, 44.8452
389.412, 44.8952
389.416, 44.9143
389.42, 44.9281
389.424, 44.9243
389.428, 44.921
389.432, 44.9089
389.436, 44.8893
389.44, 44.8541
389.444, 44.787
389.448, 44.7112
389.452, 44.6559
389.456, 44.5902
389.46, 44.5249
389.464, 44.46
389.468, 44.4139
389.472, 44.3933
389.476, 44.385
389.48, 44.4062
389.484, 44.4561
389.488, 44.5095
389.492, 44.5827
389.496, 44.6702
389.5, 44.8025
389.504, 44.9331
389.508, 45.0278
389.512, 45.0451
389.516, 45.0425
389.52, 45.0901
389.524, 45.0716
389.528, 45.0373
389.532, 44.9895
389.536, 44.9488
389.54, 44.9048
389.544, 44.8487
389.548, 44.8009
389.552, 44.7509
389.556, 44.699
389.56, 44.6548
389.564, 44.5986
389.568, 44.5506
389.572, 44.5098
389.576, 44.4936
389.58, 44.5023
389.584, 44.5087
389.588, 44.5133
389.592, 44.5338
389.596, 44.566
389.6, 44.6237
389.604, 44.7
389.608, 44.7726
389.612, 44.8254
389.616, 44.8465
389.62, 44.8454
389.624, 44.8446
389.628, 44.8438
389.632, 44.8599
389.636, 44.8569
389.64, 44.845
389.644, 44.8349
389.648, 44.7985
389.652, 44.7581
389.656, 44.7144
389.66, 44.6865
389.664, 44.6534
389.668, 44.6066
389.672, 44.5668
389.676, 44.5236
389.68, 44.4867
389.684, 44.4832
389.688, 44.5292
389.692, 44.5626
389.696, 44.604
389.7, 44.6341
389.704, 44.6732
389.708, 44.7187
389.712, 44.769
389.716, 44.8399
389.72, 44.8742
389.724, 44.8991
389.728, 44.881
389.732, 44.8656
389.736, 44.8525
389.74, 44.832
389.744, 44.7959
389.748, 44.7652
389.752, 44.7298
389.756, 44.6996
389.76, 44.646
389.764, 44.591
389.768, 44.5442
389.772, 44.495
389.776, 44.4531
389.78, 44.4173
389.784, 44.3869
389.788, 44.3795
389.792, 44.4023
389.796, 44.436
389.8, 44.4949
389.804, 44.5376
389.808, 44.5859
389.812, 44.6381
389.816, 44.6932
389.82, 44.6989
389.824, 44.703
389.828, 44.7231
389.832, 44.7217
389.836, 44.7205
389.84, 44.7102
389.844, 44.6829
389.848, 44.6596
389.852, 44.6305
389.856, 44.6056
389.86, 44.5566
389.864, 44.5056
389.868, 44.4528
389.872, 44.4078
389.876, 44.3694
389.88, 44.3368
389.884, 44.2996
389.888, 44.2773
389.892, 44.2675
389.896, 44.2693
389.9, 44.305
389.904, 44.3481
389.908, 44.3622
389.912, 44.3897
389.916, 44.444
389.92, 44.5006
389.924, 44.5246
389.928, 44.5419
389.932, 44.5546
389.936, 44.5637
389.94, 44.5487
389.944, 44.536
389.948, 44.5502
389.952, 44.5465
389.956, 44.5341
389.96, 44.4956
389.964, 44.435
389.968, 44.3833
389.972, 44.33
389.976, 44.2846
389.98, 44.2459
389.984, 44.2129
389.988, 44.194
389.992, 44.1987
389.996, 44.2193
390, 44.2515
390.004, 44.292
390.008, 44.3043
390.012, 44.3303
390.016, 44.3665
390.02, 44.3528
390.024, 44.3827
390.028, 44.4217
390.032, 44.45
390.036, 44.4706
390.04, 44.4601
390.044, 44.4232
390.048, 44.3918
390.052, 44.3558
390.056, 44.3158
390.06, 44.2817
390.064, 44.2527
390.068, 44.2094
390.072, 44.1725
390.076, 44.1317
390.08, 44.1063
390.084, 44.0846
390.088, 44.0662
390.092, 44.0505
390.096, 44.0463
390.1, 44.0914
390.104, 44.1585
390.108, 44.2073
390.112, 44.2599
390.116, 44.3153
390.12, 44.3899
390.124, 44.4441
390.128, 44.5178
390.132, 44.5886
390.136, 44.6227
390.14, 44.6303
390.144, 44.6358
390.148, 44.6398
390.152, 44.66
390.156, 44.6586
390.16, 44.6908
390.164, 44.6969
390.168, 44.6808
390.172, 44.6577
390.176, 44.6381
390.18, 44.6214
390.184, 44.6294
390.188, 44.6523
390.192, 44.669
390.196, 44.6663
390.2, 44.6964
390.204, 44.7698
390.208, 44.8403
390.212, 44.8743
390.216, 44.899
390.22, 44.9342
390.224, 44.9597
390.228, 44.9782
390.232, 44.9762
390.236, 44.9651
390.24, 44.9558
390.244, 44.9478
390.248, 44.9409
390.252, 44.9258
390.256, 44.9364
390.26, 44.9313
390.264, 44.9269
390.268, 44.9046
390.272, 44.8763
390.276, 44.8522
390.28, 44.8224
390.284, 44.797
390.288, 44.766
390.292, 44.786
390.296, 44.8177
390.3, 44.8579
390.304, 44.8871
390.308, 44.8707
390.312, 44.866
390.316, 44.8758
390.32, 44.8829
390.324, 44.888
390.328, 44.8808
390.332, 44.8746
390.336, 44.86
390.34, 44.8569
390.344, 44.8542
390.348, 44.8427
390.352, 44.8328
390.356, 44.8152
390.36, 44.8001
390.364, 44.7966
390.368, 44.7843
390.372, 44.7738
390.376, 44.7555
390.38, 44.74
390.384, 44.7175
390.388, 44.6983
390.392, 44.6819
390.396, 44.6587
390.4, 44.6482
390.404, 44.6393
390.408, 44.6317
390.412, 44.6159
390.416, 44.6024
390.42, 44.6003
390.424, 44.614
390.428, 44.6102
390.432, 44.5976
390.436, 44.5776
390.44, 44.5605
390.444, 44.568
390.448, 44.5734
390.452, 44.5773
390.456, 44.5802
390.46, 44.572
390.464, 44.5558
390.468, 44.5234
390.472, 44.4957
390.476, 44.4722
390.48, 44.4522
390.484, 44.4351
390.488, 44.4205
390.492, 44.4081
390.496, 44.3882
390.5, 44.3713
390.504, 44.3569
390.508, 44.3446
390.512, 44.3156
390.516, 44.3001
390.52, 44.2869
390.524, 44.3005
390.528, 44.3104
390.532, 44.305
390.536, 44.3004
390.54, 44.2965
390.544, 44.3075
390.548, 44.3025
390.552, 44.2983
390.556, 44.3088
390.56, 44.3164
390.564, 44.3219
390.568, 44.326
390.572, 44.3633
390.576, 44.4076
390.58, 44.4226
390.584, 44.4099
390.588, 44.3991
390.592, 44.3713
390.596, 44.3662
390.6, 44.3753
390.604, 44.3819
390.608, 44.366
390.612, 44.3338
390.616, 44.2878
390.62, 44.2486
390.624, 44.2245
390.628, 44.2039
390.632, 44.1864
390.636, 44.1715
390.64, 44.1588
390.644, 44.1573
390.648, 44.1559
390.652, 44.1548
390.656, 44.1874
390.66, 44.2283
390.664, 44.258
390.668, 44.2796
390.672, 44.2952
390.676, 44.2921
390.68, 44.2801
390.684, 44.2699
390.688, 44.271
390.692, 44.2718
390.696, 44.2629
390.7, 44.2552
390.704, 44.2487
390.708, 44.2432
390.712, 44.2384
390.716, 44.2344
390.72, 44.231
390.724, 44.2095
390.728, 44.1819
390.732, 44.1676
390.736, 44.1555
390.74, 44.1452
390.744, 44.146
390.748, 44.1639
390.752, 44.1768
390.756, 44.2207
390.76, 44.2525
390.764, 44.2928
390.768, 44.3736
390.772, 44.4324
390.776, 44.4578
390.78, 44.4763
390.784, 44.4464
390.788, 44.4209
390.792, 44.3899
390.796, 44.3728
390.8, 44.3396
390.804, 44.302
390.808, 44.2422
390.812, 44.1819
390.816, 44.1212
390.82, 44.0788
390.824, 44.0334
390.828, 44.0133
390.832, 44.0159
390.836, 44.0178
390.84, 44.0364
390.844, 44.0843
390.848, 44.1534
390.852, 44.2208
390.856, 44.2698
390.86, 44.3054
390.864, 44.3484
390.868, 44.3968
390.872, 44.4492
390.876, 44.4872
390.88, 44.4976
390.884, 44.4831
390.888, 44.4522
390.892, 44.4166
390.896, 44.3955
390.9, 44.3775
390.904, 44.3437
390.908, 44.2962
390.912, 44.2465
390.916, 44.1949
390.92, 44.1509
390.924, 44.1227
390.928, 44.1297
390.932, 44.152
390.936, 44.1682
390.94, 44.1972
390.944, 44.2354
390.948, 44.2804
390.952, 44.3474
390.956, 44.3961
390.96, 44.4143
390.964, 44.4275
390.968, 44.4234
390.972, 44.4198
390.976, 44.4168
390.98, 44.4293
390.984, 44.4384
390.988, 44.4326
390.992, 44.4277
390.996, 44.4236
391, 44.4107
391.004, 44.3905
391.008, 44.3733
391.012, 44.3679
391.016, 44.3766
391.02, 44.3707
391.024, 44.3564
391.028, 44.3256
391.032, 44.3087
391.036, 44.3036
391.04, 44.2899
391.044, 44.2782
391.048, 44.2776
391.052, 44.311
391.056, 44.3696
391.06, 44.4294
391.064, 44.4729
391.068, 44.4872
391.072, 44.4835
391.076, 44.4804
391.08, 44.4777
391.084, 44.4907
391.088, 44.4865
391.092, 44.4829
391.096, 44.4945
391.1, 44.5029
391.104, 44.4969
391.108, 44.4732
391.112, 44.453
391.116, 44.4265
391.12, 44.404
391.124, 44.3847
391.128, 44.3591
391.132, 44.3372
391.136, 44.3278
391.14, 44.3303
391.144, 44.332
391.148, 44.3849
391.152, 44.4405
391.156, 44.4809
391.16, 44.4781
391.164, 44.4758
391.168, 44.4893
391.172, 44.5163
391.176, 44.5531
391.18, 44.549
391.184, 44.5362
391.188, 44.5159
391.192, 44.4987
391.196, 44.4933
391.2, 44.4795
391.204, 44.4676
391.208, 44.4576
391.212, 44.449
391.216, 44.4527
391.22, 44.4553
391.224, 44.4378
391.228, 44.4228
391.232, 44.4336
391.236, 44.4587
391.24, 44.4597
391.244, 44.4508
391.248, 44.4339
391.252, 44.4103
391.256, 44.3994
391.26, 44.3901
391.264, 44.3822
391.268, 44.3755
391.272, 44.3697
391.276, 44.3648
391.28, 44.3915
391.284, 44.4109
391.288, 44.4422
391.292, 44.4649
391.296, 44.4814
391.3, 44.5277
391.304, 44.5274
391.308, 44.5177
391.312, 44.5095
391.316, 44.5138
391.32, 44.5062
391.324, 44.4997
391.328, 44.4942
391.332, 44.4802
391.336, 44.4682
391.34, 44.4673
391.344, 44.4573
391.348, 44.4587
391.352, 44.4597
391.356, 44.4508
391.36, 44.4339
391.364, 44.4102
391.368, 44.3901
391.372, 44.3822
391.376, 44.3869
391.38, 44.3904
391.384, 44.3929
391.388, 44.3947
391.392, 44.4304
391.396, 44.4907
391.4, 44.5345
391.404, 44.5491
391.408, 44.5598
391.412, 44.5546
391.416, 44.5637
391.42, 44.5875
391.424, 44.5876
391.428, 44.5784
391.432, 44.5705
391.436, 44.5545
391.44, 44.5408
391.444, 44.5199
391.448, 44.5385
391.452, 44.552
391.456, 44.548
391.46, 44.5446
391.464, 44.5046
391.468, 44.4705
391.472, 44.4321
391.476, 44.3902
391.48, 44.3451
391.484, 44.3067
391.488, 44.2833
391.492, 44.2819
391.496, 44.2969
391.5, 44.3078
391.504, 44.3329
391.508, 44.3511
391.512, 44.3644
391.516, 44.374
391.52, 44.4325
391.524, 44.4923
391.528, 44.5528
391.532, 44.5796
391.536, 44.5716
391.54, 44.5647
391.544, 44.571
391.548, 44.5756
391.552, 44.579
391.556, 44.571
391.56, 44.5457
391.564, 44.5148
391.568, 44.4977
391.572, 44.4925
